0
0
0
0
0
0
0
0
0
0
0.078459096
0.156434465
0.233445364
0.309016994
0.382683432
0.4539905
0.522498565
0.587785252
0.649448048
0.707106781
0.760405966
0.809016994
0.852640164
0.891006524
0.923879533
0.951056516
0.97236992
0.987688341
0.996917334
1
0.996917334
0.987688341
0.97236992
0.951056516
0.923879533
0.891006524
0.852640164
0.809016994
0.760405966
0.707106781
0.649448048
0.587785252
0.522498565
0.4539905
0.382683432
0.309016994
0.233445364
0.156434465
0.078459096
0
0
0
0
0
0
-0.2
-0.4
-0.6
-0.8
-1
-1.2
-1.4
-1.6
-1.8
-2
-2.2
-2.4
-2.6
-2.8
-3
-2.4
-1.8
-1.2
-0.6
0
0.6
1.2
1.8
2.4
3
3.3
3.6
3.9
4.2
4.5
4.8
5.1
5.4
5.7
6
5.4
4.8
4.2
3.6
3
2.4
1.8
1.2
0.6
0
-0.6
-1.2
-1.8
-2.4
-3
-3.6
-4.2
-3.542975247
-2.902128624
-2.293239901
-1.73130194
-1.230151519
-0.802128624
-0.457772598
-0.205562632
-0.05170897
0
0
0
0
0
0
0
0
0
0
0.066666667
0.133333333
0.2
0.266666667
0.333333333
0.4
0.466666667
0.533333333
0.6
0.666666667
0.733333333
0.8
0.866666667
0.933333333
1.104528463
1.207911691
1.309016994
1.406736643
1.5
1.587785252
1.669130606
1.743144825
1.809016994
1.866025404
1.913545458
1.951056516
1.978147601
1.994521895
2
1.994521895
1.978147601
1.951056516
1.913545458
1.866025404
1.809016994
1.743144825
1.669130606
1.587785252
1.5
1.406736643
1.309016994
1.207911691
1.104528463
1
0.895471537
0.792088309
0.690983006
0.593263357
0.5
0.412214748
0.330869394
0.256855175
0.190983006
0.133974596
0.086454542
0.048943484
0.021852399
0.005478105
0
0
0
0
0
0
0
0
0
0
0
0
0
0
0
0
0
0
0
0
0
0
0
0
0
0
0
0
0
0
0
0
0
0
0
0
0
0
0
0
0
0
0
0
0
0
0
0
0
0
0
0
0
0
0
0
0
0
0
0
0
0
0
0
0
0
0
0
0
0
0
0
0
0
0
0
0
0
0
0
0
0
0
0
0
0
0
0
0
0
0
0
0
0
0
0
0
0
0
0
0
0
0
0
0
0
0
0
0
0
0
0
0
0
0
0
0
0
0
0
0
0
0
0
0
0.078459096
0.156434465
0.233445364
0.309016994
0.382683432
0.4539905
0.522498565
0.587785252
0.649448048
0.707106781
0.760405966
0.809016994
0.852640164
0.891006524
0.923879533
0.951056516
0.97236992
0.987688341
0.996917334
1
0.996917334
0.987688341
0.97236992
0.951056516
0.923879533
0.891006524
0.852640164
0.809016994
0.760405966
0.707106781
0.649448048
0.587785252
0.522498565
0.4539905
0.382683432
0.309016994
0.233445364
0.156434465
0.078459096
0
0
0
0
0
0
-0.2
-0.4
-0.6
-0.8
-1
-1.2
-1.4
-1.6
-1.8
-2
-2.2
-2.4
-2.6
-2.8
-3
-2.4
-1.8
-1.2
-0.6
0
0.6
1.2
1.8
2.4
3
3.3
3.6
3.9
4.2
4.5
4.8
5.1
5.4
5.7
6
5.4
4.8
4.2
3.6
3
2.4
1.8
1.2
0.6
0
-0.6
-1.2
-1.8
-2.4
-3
-3.6
-4.2
-3.542975247
-2.902128624
-2.293239901
-1.73130194
-1.230151519
-0.802128624
-0.457772598
-0.205562632
-0.05170897
0
0
0
0
0
0
0
0
0
0
0.066666667
0.133333333
0.2
0.266666667
0.333333333
0.4
0.466666667
0.533333333
0.6
0.666666667
0.733333333
0.8
0.866666667
0.933333333
1.104528463
1.207911691
1.309016994
1.406736643
1.5
1.587785252
1.669130606
1.743144825
1.809016994
1.866025404
1.913545458
1.951056516
1.978147601
1.994521895
2
1.994521895
1.978147601
1.951056516
1.913545458
1.866025404
1.809016994
1.743144825
1.669130606
1.587785252
1.5
1.406736643
1.309016994
1.207911691
1.104528463
1
0.895471537
0.792088309
0.690983006
0.593263357
0.5
0.412214748
0.330869394
0.256855175
0.190983006
0.133974596
0.086454542
0.048943484
0.021852399
0.005478105
0
0
0
0
0
0
0
0
0
0
0
0
0
0
0
0
0
0
0
0
0
0
0
0
0
0
0
0
0
0
0
0
0
0
0
0
0
0
0
0
0
0
0
0
0
0
0
0
0
0
0
0
0
0
0
0
0
0
0
0
0
0
0
0
0
0
0
0
0
0
0
0
0
0
0
0
0
0
0
0
0
0
0
0
0
0
0
0
0
0
0
0
0
0
0
0
0
0
0
0
0
0
0
0
0
0
0
0
0
0
0
0
0
0
0
0
0
0
0
0
0
0
0
0
0
0
0.078459096
0.156434465
0.233445364
0.309016994
0.382683432
0.4539905
0.522498565
0.587785252
0.649448048
0.707106781
0.760405966
0.809016994
0.852640164
0.891006524
0.923879533
0.951056516
0.97236992
0.987688341
0.996917334
1
0.996917334
0.987688341
0.97236992
0.951056516
0.923879533
0.891006524
0.852640164
0.809016994
0.760405966
0.707106781
0.649448048
0.587785252
0.522498565
0.4539905
0.382683432
0.309016994
0.233445364
0.156434465
0.078459096
0
0
0
0
0
0
-0.2
-0.4
-0.6
-0.8
-1
-1.2
-1.4
-1.6
-1.8
-2
-2.2
-2.4
-2.6
-2.8
-3
-2.4
-1.8
-1.2
-0.6
0
0.6
1.2
1.8
2.4
3
3.3
3.6
3.9
4.2
4.5
4.8
5.1
5.4
5.7
6
5.4
4.8
4.2
3.6
3
2.4
1.8
1.2
0.6
0
-0.6
-1.2
-1.8
-2.4
-3
-3.6
-4.2
-3.542975247
-2.902128624
-2.293239901
-1.73130194
-1.230151519
-0.802128624
-0.457772598
-0.205562632
-0.05170897
0
0
0
0
0
0
0
0
0
0
0.066666667
0.133333333
0.2
0.266666667
0.333333333
0.4
0.466666667
0.533333333
0.6
0.666666667
0.733333333
0.8
0.866666667
0.933333333
1.104528463
1.207911691
1.309016994
1.406736643
1.5
1.587785252
1.669130606
1.743144825
1.809016994
1.866025404
1.913545458
1.951056516
1.978147601
1.994521895
2
1.994521895
1.978147601
1.951056516
1.913545458
1.866025404
1.809016994
1.743144825
1.669130606
1.587785252
1.5
1.406736643
1.309016994
1.207911691
1.104528463
1
0.895471537
0.792088309
0.690983006
0.593263357
0.5
0.412214748
0.330869394
0.256855175
0.190983006
0.133974596
0.086454542
0.048943484
0.021852399
0.005478105
0
0
0
0
0
0
0
0
0
0
0
0
0
0
0
0
0
0
0
0
0
0
0
0
0
0
0
0
0
0
0
0
0
0
0
0
0
0
0
0
0
0
0
0
0
0
0
0
0
0
0
0
0
0
0
0
0
0
0
0
0
0
0
0
0
0
0
0
0
0
0
0
0
0
0
0
0
0
0
0
0
0
0
0
0
0
0
0
0
0
0
0
0
0
0
0
0
0
0
0
0
0
0
0
0
0
0
0
0
0
0
0
0
0
0
0
0
0
0
0
0
0
0
0
0
0
0.078459096
0.156434465
0.233445364
0.309016994
0.382683432
0.4539905
0.522498565
0.587785252
0.649448048
0.707106781
0.760405966
0.809016994
0.852640164
0.891006524
0.923879533
0.951056516
0.97236992
0.987688341
0.996917334
1
0.996917334
0.987688341
0.97236992
0.951056516
0.923879533
0.891006524
0.852640164
0.809016994
0.760405966
0.707106781
0.649448048
0.587785252
0.522498565
0.4539905
0.382683432
0.309016994
0.233445364
0.156434465
0.078459096
0
0
0
0
0
0
-0.2
-0.4
-0.6
-0.8
-1
-1.2
-1.4
-1.6
-1.8
-2
-2.2
-2.4
-2.6
-2.8
-3
-2.4
-1.8
-1.2
-0.6
0
0.6
1.2
1.8
2.4
3
3.3
3.6
3.9
4.2
4.5
4.8
5.1
5.4
5.7
6
5.4
4.8
4.2
3.6
3
2.4
1.8
1.2
0.6
0
-0.6
-1.2
-1.8
-2.4
-3
-3.6
-4.2
-3.542975247
-2.902128624
-2.293239901
-1.73130194
-1.230151519
-0.802128624
-0.457772598
-0.205562632
-0.05170897
0
0
0
0
0
0
0
0
0
0
0.066666667
0.133333333
0.2
0.266666667
0.333333333
0.4
0.466666667
0.533333333
0.6
0.666666667
0.733333333
0.8
0.866666667
0.933333333
1.104528463
1.207911691
1.309016994
1.406736643
1.5
1.587785252
1.669130606
1.743144825
1.809016994
1.866025404
1.913545458
1.951056516
1.978147601
1.994521895
2
1.994521895
1.978147601
1.951056516
1.913545458
1.866025404
1.809016994
1.743144825
1.669130606
1.587785252
1.5
1.406736643
1.309016994
1.207911691
1.104528463
1
0.895471537
0.792088309
0.690983006
0.593263357
0.5
0.412214748
0.330869394
0.256855175
0.190983006
0.133974596
0.086454542
0.048943484
0.021852399
0.005478105
0
0
0
0
0
0
0
0
0
0
0
0
0
0
0
0
0
0
0
0
0
0
0
0
0
0
0
0
0
0
0
0
0
0
0
0
0
0
0
0
0
0
0
0
0
0
0
0
0
0
0
0
0
0
0
0
0
0
0
0
0
0
0
0
0
0
0
0
0
0
0
0
0
0
0
0
0
0
0
0
0
0
0
0
0
0
0
0
0
0
0
0
0
0
0
0
0
0
0
0
0
0
0
0
0
0
0
0
0
0
0
0
0
0
0
0
0
0
0
0
0
0
0
0
0
0
0.078459096
0.156434465
0.233445364
0.309016994
0.382683432
0.4539905
0.522498565
0.587785252
0.649448048
0.707106781
0.760405966
0.809016994
0.852640164
0.891006524
0.923879533
0.951056516
0.97236992
0.987688341
0.996917334
1
0.996917334
0.987688341
0.97236992
0.951056516
0.923879533
0.891006524
0.852640164
0.809016994
0.760405966
0.707106781
0.649448048
0.587785252
0.522498565
0.4539905
0.382683432
0.309016994
0.233445364
0.156434465
0.078459096
0
0
0
0
0
0
-0.2
-0.4
-0.6
-0.8
-1
-1.2
-1.4
-1.6
-1.8
-2
-2.2
-2.4
-2.6
-2.8
-3
-2.4
-1.8
-1.2
-0.6
0
0.6
1.2
1.8
2.4
3
3.3
3.6
3.9
4.2
4.5
4.8
5.1
5.4
5.7
6
5.4
4.8
4.2
3.6
3
2.4
1.8
1.2
0.6
0
-0.6
-1.2
-1.8
-2.4
-3
-3.6
-4.2
-3.542975247
-2.902128624
-2.293239901
-1.73130194
-1.230151519
-0.802128624
-0.457772598
-0.205562632
-0.05170897
0
0
0
0
0
0
0
0
0
0
0.066666667
0.133333333
0.2
0.266666667
0.333333333
0.4
0.466666667
0.533333333
0.6
0.666666667
0.733333333
0.8
0.866666667
0.933333333
1.104528463
1.207911691
1.309016994
1.406736643
1.5
1.587785252
1.669130606
1.743144825
1.809016994
1.866025404
1.913545458
1.951056516
1.978147601
1.994521895
2
1.994521895
1.978147601
1.951056516
1.913545458
1.866025404
1.809016994
1.743144825
1.669130606
1.587785252
1.5
1.406736643
1.309016994
1.207911691
1.104528463
1
0.895471537
0.792088309
0.690983006
0.593263357
0.5
0.412214748
0.330869394
0.256855175
0.190983006
0.133974596
0.086454542
0.048943484
0.021852399
0.005478105
0
0
0
0
0
0
0
0
0
0
0
0
0
0
0
0
0
0
0
0
0
0
0
0
0
0
0
0
0
0
0
0
0
0
0
0
0
0
0
0
0
0
0
0
0
0
0
0
0
0
0
0
0
0
0
0
0
0
0
0
0
0
0
0
0
0
0
0
0
0
0
0
0
0
0
0
0
0
0
0
0
0
0
0
0
0
0
0
0
0
0
0
0
0
0
0
0
0
0
0
0
0
0
0
0
0
0
0
0
0
0
0
0
0
0
0
0
0
0
0
0
0
0
0
0
0
0.078459096
0.156434465
0.233445364
0.309016994
0.382683432
0.4539905
0.522498565
0.587785252
0.649448048
0.707106781
0.760405966
0.809016994
0.852640164
0.891006524
0.923879533
0.951056516
0.97236992
0.987688341
0.996917334
1
0.996917334
0.987688341
0.97236992
0.951056516
0.923879533
0.891006524
0.852640164
0.809016994
0.760405966
0.707106781
0.649448048
0.587785252
0.522498565
0.4539905
0.382683432
0.309016994
0.233445364
0.156434465
0.078459096
0
0
0
0
0
0
-0.2
-0.4
-0.6
-0.8
-1
-1.2
-1.4
-1.6
-1.8
-2
-2.2
-2.4
-2.6
-2.8
-3
-2.4
-1.8
-1.2
-0.6
0
0.6
1.2
1.8
2.4
3
3.3
3.6
3.9
4.2
4.5
4.8
5.1
5.4
5.7
6
5.4
4.8
4.2
3.6
3
2.4
1.8
1.2
0.6
0
-0.6
-1.2
-1.8
-2.4
-3
-3.6
-4.2
-3.542975247
-2.902128624
-2.293239901
-1.73130194
-1.230151519
-0.802128624
-0.457772598
-0.205562632
-0.05170897
0
0
0
0
0
0
0
0
0
0
0.066666667
0.133333333
0.2
0.266666667
0.333333333
0.4
0.466666667
0.533333333
0.6
0.666666667
0.733333333
0.8
0.866666667
0.933333333
1.104528463
1.207911691
1.309016994
1.406736643
1.5
1.587785252
1.669130606
1.743144825
1.809016994
1.866025404
1.913545458
1.951056516
1.978147601
1.994521895
2
1.994521895
1.978147601
1.951056516
1.913545458
1.866025404
1.809016994
1.743144825
1.669130606
1.587785252
1.5
1.406736643
1.309016994
1.207911691
1.104528463
1
0.895471537
0.792088309
0.690983006
0.593263357
0.5
0.412214748
0.330869394
0.256855175
0.190983006
0.133974596
0.086454542
0.048943484
0.021852399
0.005478105
0
0
0
0
0
0
0
0
0
0
0
0
0
0
0
0
0
0
0
0
0
0
0
0
0
0
0
0
0
0
0
0
0
0
0
0
0
0
0
0
0
0
0
0
0
0
0
0
0
0
0
0
0
0
0
0
0
0
0
0
0
0
0
0
0
0
0
0
0
0
0
0
0
0
0
0
0
0
0
0
0
0
0
0
0
0
0
0
0
0
0
0
0
0
0
0
0
0
0
0
0
0
0
0
0
0
0
0
0
0
0
0
0
0
0
0
0
0
0
0
0
0
0
0
0
0
0.078459096
0.156434465
0.233445364
0.309016994
0.382683432
0.4539905
0.522498565
0.587785252
0.649448048
0.707106781
0.760405966
0.809016994
0.852640164
0.891006524
0.923879533
0.951056516
0.97236992
0.987688341
0.996917334
1
0.996917334
0.987688341
0.97236992
0.951056516
0.923879533
0.891006524
0.852640164
0.809016994
0.760405966
0.707106781
0.649448048
0.587785252
0.522498565
0.4539905
0.382683432
0.309016994
0.233445364
0.156434465
0.078459096
0
0
0
0
0
0
-0.2
-0.4
-0.6
-0.8
-1
-1.2
-1.4
-1.6
-1.8
-2
-2.2
-2.4
-2.6
-2.8
-3
-2.4
-1.8
-1.2
-0.6
0
0.6
1.2
1.8
2.4
3
3.3
3.6
3.9
4.2
4.5
4.8
5.1
5.4
5.7
6
5.4
4.8
4.2
3.6
3
2.4
1.8
1.2
0.6
0
-0.6
-1.2
-1.8
-2.4
-3
-3.6
-4.2
-3.542975247
-2.902128624
-2.293239901
-1.73130194
-1.230151519
-0.802128624
-0.457772598
-0.205562632
-0.05170897
0
0
0
0
0
0
0
0
0
0
0.066666667
0.133333333
0.2
0.266666667
0.333333333
0.4
0.466666667
0.533333333
0.6
0.666666667
0.733333333
0.8
0.866666667
0.933333333
1.104528463
1.207911691
1.309016994
1.406736643
1.5
1.587785252
1.669130606
1.743144825
1.809016994
1.866025404
1.913545458
1.951056516
1.978147601
1.994521895
2
1.994521895
1.978147601
1.951056516
1.913545458
1.866025404
1.809016994
1.743144825
1.669130606
1.587785252
1.5
1.406736643
1.309016994
1.207911691
1.104528463
1
0.895471537
0.792088309
0.690983006
0.593263357
0.5
0.412214748
0.330869394
0.256855175
0.190983006
0.133974596
0.086454542
0.048943484
0.021852399
0.005478105
0
0
0
0
0
0
0
0
0
0
0
0
0
0
0
0
